# Pulseq sequence file
# Created by PyPulseq

[VERSION]
major 1
minor 4
revision 2

[DEFINITIONS]
AdcRasterTime 1e-06 
BlockDurationRaster 1e-06 
FOV 0.14 0.14 0.14 
GradientRasterTime 1e-06 
Name tse_3d 
RadiofrequencyRasterTime 1e-06 
TE 0.01 
TR 0.6 
TotalDuration 151.8 
channel_order z y x 
echo_train_length 20 
enc_type 3D 
encoding_dim 70 70 70 
n_total_trains 253 
ro_bandwidth 20000 
ro_oversampling 1 
train_duration 0 

# Format of blocks:
# NUM DUR RF  GX  GY  GZ  ADC  EXT
[BLOCKS]
    1 250   1   0   0   0  0  0
    2 3166   0   0   0   1  0  0
    3 1584   0   0   0   0  0  0
    4 250   2   0   0   0  0  0
    5 2130   0   2   2   3  0  0
    6 866   0   0   0   0  0  0
    7 3658   0   0   0   4  0  0
    8 2130   0   2   2   3  0  0
    9 966   0   0   0   0  0  0
   10 250   2   0   0   0  0  0
   11 2130   0   2   2   3  0  0
   12 866   0   0   0   0  0  0
   13 3658   0   0   0   4  0  0
   14 2130   0   2   2   3  0  0
   15 966   0   0   0   0  0  0
   16 250   2   0   0   0  0  0
   17 2130   0   2   2   3  0  0
   18 866   0   0   0   0  0  0
   19 3658   0   0   0   4  0  0
   20 2130   0   2   2   3  0  0
   21 966   0   0   0   0  0  0
   22 250   2   0   0   0  0  0
   23 2130   0   2   2   3  0  0
   24 866   0   0   0   0  0  0
   25 3658   0   0   0   4  0  0
   26 2130   0   2   2   3  0  0
   27 966   0   0   0   0  0  0
   28 250   2   0   0   0  0  0
   29 2130   0   2   2   3  0  0
   30 866   0   0   0   0  0  0
   31 3658   0   0   0   4  0  0
   32 2130   0   2   2   3  0  0
   33 966   0   0   0   0  0  0
   34 250   2   0   0   0  0  0
   35 2130   0   2   2   3  0  0
   36 866   0   0   0   0  0  0
   37 3658   0   0   0   4  0  0
   38 2130   0   2   2   3  0  0
   39 966   0   0   0   0  0  0
   40 250   2   0   0   0  0  0
   41 2130   0   2   2   3  0  0
   42 866   0   0   0   0  0  0
   43 3658   0   0   0   4  0  0
   44 2130   0   2   2   3  0  0
   45 966   0   0   0   0  0  0
   46 250   2   0   0   0  0  0
   47 2130   0   2   2   3  0  0
   48 866   0   0   0   0  0  0
   49 3658   0   0   0   4  0  0
   50 2130   0   2   2   3  0  0
   51 966   0   0   0   0  0  0
   52 250   2   0   0   0  0  0
   53 2130   0   2   2   3  0  0
   54 866   0   0   0   0  0  0
   55 3658   0   0   0   4  0  0
   56 2130   0   2   2   3  0  0
   57 966   0   0   0   0  0  0
   58 250   2   0   0   0  0  0
   59 2130   0   2   2   3  0  0
   60 866   0   0   0   0  0  0
   61 3658   0   0   0   4  0  0
   62 2130   0   2   2   3  0  0
   63 966   0   0   0   0  0  0
   64 250   2   0   0   0  0  0
   65 2130   0   2   2   3  0  0
   66 866   0   0   0   0  0  0
   67 3658   0   0   0   4  0  0
   68 2130   0   2   2   3  0  0
   69 966   0   0   0   0  0  0
   70 250   2   0   0   0  0  0
   71 2130   0   2   2   3  0  0
   72 866   0   0   0   0  0  0
   73 3658   0   0   0   4  0  0
   74 2130   0   2   2   3  0  0
   75 966   0   0   0   0  0  0
   76 250   2   0   0   0  0  0
   77 2130   0   2   2   3  0  0
   78 866   0   0   0   0  0  0
   79 3658   0   0   0   4  0  0
   80 2130   0   2   2   3  0  0
   81 966   0   0   0   0  0  0
   82 250   2   0   0   0  0  0
   83 2130   0   2   2   3  0  0
   84 866   0   0   0   0  0  0
   85 3658   0   0   0   4  0  0
   86 2130   0   2   2   3  0  0
   87 966   0   0   0   0  0  0
   88 250   2   0   0   0  0  0
   89 2130   0   2   2   3  0  0
   90 866   0   0   0   0  0  0
   91 3658   0   0   0   4  0  0
   92 2130   0   2   2   3  0  0
   93 966   0   0   0   0  0  0
   94 250   2   0   0   0  0  0
   95 2130   0   2   2   3  0  0
   96 866   0   0   0   0  0  0
   97 3658   0   0   0   4  0  0
   98 2130   0   2   2   3  0  0
   99 966   0   0   0   0  0  0
  100 250   2   0   0   0  0  0
  101 2130   0   2   2   3  0  0
  102 866   0   0   0   0  0  0
  103 3658   0   0   0   4  0  0
  104 2130   0   2   2   3  0  0
  105 966   0   0   0   0  0  0
  106 250   2   0   0   0  0  0
  107 2130   0   2   2   3  0  0
  108 866   0   0   0   0  0  0
  109 3658   0   0   0   4  0  0
  110 2130   0   2   2   3  0  0
  111 966   0   0   0   0  0  0
  112 250   2   0   0   0  0  0
  113 2130   0   2   2   3  0  0
  114 866   0   0   0   0  0  0
  115 3658   0   0   0   4  0  0
  116 2130   0   2   2   3  0  0
  117 966   0   0   0   0  0  0
  118 250   2   0   0   0  0  0
  119 2130   0   2   2   3  0  0
  120 866   0   0   0   0  0  0
  121 3658   0   0   0   4  0  0
  122 2130   0   2   2   3  0  0
  123 966   0   0   0   0  0  0
  124 395000   0   0   0   0  0  0
  125 250   1   0   0   0  0  0
  126 3166   0   0   0   1  0  0
  127 1584   0   0   0   0  0  0
  128 250   2   0   0   0  0  0
  129 2130   0   2   2   3  0  0
  130 866   0   0   0   0  0  0
  131 3658   0   0   0   4  0  0
  132 2130   0   2   2   3  0  0
  133 966   0   0   0   0  0  0
  134 250   2   0   0   0  0  0
  135 2130   0   2   2   3  0  0
  136 866   0   0   0   0  0  0
  137 3658   0   0   0   4  0  0
  138 2130   0   2   2   3  0  0
  139 966   0   0   0   0  0  0
  140 250   2   0   0   0  0  0
  141 2130   0   2   2   3  0  0
  142 866   0   0   0   0  0  0
  143 3658   0   0   0   4  0  0
  144 2130   0   2   2   3  0  0
  145 966   0   0   0   0  0  0
  146 250   2   0   0   0  0  0
  147 2130   0   2   2   3  0  0
  148 866   0   0   0   0  0  0
  149 3658   0   0   0   4  0  0
  150 2130   0   2   2   3  0  0
  151 966   0   0   0   0  0  0
  152 250   2   0   0   0  0  0
  153 2130   0   2   2   3  0  0
  154 866   0   0   0   0  0  0
  155 3658   0   0   0   4  0  0
  156 2130   0   2   2   3  0  0
  157 966   0   0   0   0  0  0
  158 250   2   0   0   0  0  0
  159 2130   0   2   2   3  0  0
  160 866   0   0   0   0  0  0
  161 3658   0   0   0   4  0  0
  162 2130   0   2   2   3  0  0
  163 966   0   0   0   0  0  0
  164 250   2   0   0   0  0  0
  165 2130   0   2   2   3  0  0
  166 866   0   0   0   0  0  0
  167 3658   0   0   0   4  0  0
  168 2130   0   2   2   3  0  0
  169 966   0   0   0   0  0  0
  170 250   2   0   0   0  0  0
  171 2130   0   2   2   3  0  0
  172 866   0   0   0   0  0  0
  173 3658   0   0   0   4  0  0
  174 2130   0   2   2   3  0  0
  175 966   0   0   0   0  0  0
  176 250   2   0   0   0  0  0
  177 2130   0   2   2   3  0  0
  178 866   0   0   0   0  0  0
  179 3658   0   0   0   4  0  0
  180 2130   0   2   2   3  0  0
  181 966   0   0   0   0  0  0
  182 250   2   0   0   0  0  0
  183 2130   0   2   2   3  0  0
  184 866   0   0   0   0  0  0
  185 3658   0   0   0   4  0  0
  186 2130   0   2   2   3  0  0
  187 966   0   0   0   0  0  0
  188 250   2   0   0   0  0  0
  189 2130   0   2   2   3  0  0
  190 866   0   0   0   0  0  0
  191 3658   0   0   0   4  0  0
  192 2130   0   2   2   3  0  0
  193 966   0   0   0   0  0  0
  194 250   2   0   0   0  0  0
  195 2130   0   2   2   3  0  0
  196 866   0   0   0   0  0  0
  197 3658   0   0   0   4  0  0
  198 2130   0   2   2   3  0  0
  199 966   0   0   0   0  0  0
  200 250   2   0   0   0  0  0
  201 2130   0   2   2   3  0  0
  202 866   0   0   0   0  0  0
  203 3658   0   0   0   4  0  0
  204 2130   0   2   2   3  0  0
  205 966   0   0   0   0  0  0
  206 250   2   0   0   0  0  0
  207 2130   0   2   2   3  0  0
  208 866   0   0   0   0  0  0
  209 3658   0   0   0   4  0  0
  210 2130   0   2   2   3  0  0
  211 966   0   0   0   0  0  0
  212 250   2   0   0   0  0  0
  213 2130   0   2   2   3  0  0
  214 866   0   0   0   0  0  0
  215 3658   0   0   0   4  0  0
  216 2130   0   2   2   3  0  0
  217 966   0   0   0   0  0  0
  218 250   2   0   0   0  0  0
  219 2130   0   2   2   3  0  0
  220 866   0   0   0   0  0  0
  221 3658   0   0   0   4  0  0
  222 2130   0   2   2   3  0  0
  223 966   0   0   0   0  0  0
  224 250   2   0   0   0  0  0
  225 2130   0   2   2   3  0  0
  226 866   0   0   0   0  0  0
  227 3658   0   0   0   4  0  0
  228 2130   0   2   2   3  0  0
  229 966   0   0   0   0  0  0
  230 250   2   0   0   0  0  0
  231 2130   0   2   2   3  0  0
  232 866   0   0   0   0  0  0
  233 3658   0   0   0   4  0  0
  234 2130   0   2   2   3  0  0
  235 966   0   0   0   0  0  0
  236 250   2   0   0   0  0  0
  237 2130   0   2   2   3  0  0
  238 866   0   0   0   0  0  0
  239 3658   0   0   0   4  0  0
  240 2130   0   2   2   3  0  0
  241 966   0   0   0   0  0  0
  242 250   2   0   0   0  0  0
  243 2130   0   2   2   3  0  0
  244 866   0   0   0   0  0  0
  245 3658   0   0   0   4  0  0
  246 2130   0   2   2   3  0  0
  247 966   0   0   0   0  0  0
  248 395000   0   0   0   0  0  0
  249 250   1   0   0   0  0  0
  250 3166   0   0   0   1  0  0
  251 1584   0   0   0   0  0  0
  252 250   2   0   0   0  0  0
  253 2130   0   2   2   3  0  0
  254 866   0   0   0   0  0  0
  255 3658   0   0   0   4  0  0
  256 2130   0   2   2   3  0  0
  257 966   0   0   0   0  0  0
  258 250   2   0   0   0  0  0
  259 2130   0   2   2   3  0  0
  260 866   0   0   0   0  0  0
  261 3658   0   0   0   4  0  0
  262 2130   0   2   2   3  0  0
  263 966   0   0   0   0  0  0
  264 250   2   0   0   0  0  0
  265 2130   0   2   2   3  0  0
  266 866   0   0   0   0  0  0
  267 3658   0   0   0   4  0  0
  268 2130   0   2   2   3  0  0
  269 966   0   0   0   0  0  0
  270 250   2   0   0   0  0  0
  271 2130   0   2   2   3  0  0
  272 866   0   0   0   0  0  0
  273 3658   0   0   0   4  0  0
  274 2130   0   2   2   3  0  0
  275 966   0   0   0   0  0  0
  276 250   2   0   0   0  0  0
  277 2130   0   2   2   3  0  0
  278 866   0   0   0   0  0  0
  279 3658   0   0   0   4  0  0
  280 2130   0   2   2   3  0  0
  281 966   0   0   0   0  0  0
  282 250   2   0   0   0  0  0
  283 2130   0   2   2   3  0  0
  284 866   0   0   0   0  0  0
  285 3658   0   0   0   4  0  0
  286 2130   0   2   2   3  0  0
  287 966   0   0   0   0  0  0
  288 250   2   0   0   0  0  0
  289 2130   0   2   2   3  0  0
  290 866   0   0   0   0  0  0
  291 3658   0   0   0   4  0  0
  292 2130   0   2   2   3  0  0
[RF]
1         1250 1 2 3 20 0 0
2         2500 1 2 3 20 0 1.5708

# Format of trapezoid gradients:
# id amplitude rise flat fall delay
# ..      Hz/m   us   us   us    us
[TRAP]
 1       249943  59 3048  59   0
 2            0   1 1057   1   0
 3       249983  59 2012  59   0
 4       142857  34 3590  34   0
 5      28571.4  59  941  59   0
 6     -57142.9  59  941  59   0
 7     -28571.4  59  941  59   0
 8      57142.9  59  941  59   0
 9      78571.4  59  941  59   0
10     -42857.1  59  941  59   0
11     -78571.4  59  941  59   0
12      42857.1  59  941  59   0
13      92857.1  59  941  59   0
14     -92857.1  59  941  59   0
15     -85714.3  59  941  59   0
16      85714.3  59  941  59   0
17      -100000  59  941  59   0
18       100000  59  941  59   0
19      35714.3  59  941  59   0
20       150000  59  941  59   0
21     -35714.3  59  941  59   0
22      -150000  59  941  59   0
23       164286  59  941  59   0
24      -164286  59  941  59   0
25      -178571  59  941  59   0
26       178571  59  941  59   0
27      -200000  59  941  59   0
28       200000  59  941  59   0
29       128571  59  941  59   0
30      -128571  59  941  59   0
31      -114286  59  941  59   0
32      -185714  59  941  59   0
33       114286  59  941  59   0
34       185714  59  941  59   0
35       171429  59  941  59   0
36      -171429  59  941  59   0
37     -14271.4  58  943  58   0
38      -235714  59  941  59   0
39      14271.4  58  943  58   0
40       235714  59  941  59   0
41       228571  59  941  59   0
42      -228571  59  941  59   0
43       142857  59  941  59   0
44       221429  59  941  59   0
45      -142857  59  941  59   0
46      -221429  59  941  59   0
47      -207143  59  941  59   0
48       207143  59  941  59   0
49      -250000  59  941  59   0
50       250000  59  941  59   0
51     -7016.56  41  977  41   0
52      7016.56  41  977  41   0
53       121429  59  941  59   0
54      -121429  59  941  59   0
55      -214286  59  941  59   0
56       214286  59  941  59   0
57       242857  59  941  59   0
58      71428.6  59  941  59   0
59      -242857  59  941  59   0
60     -71428.6  59  941  59   0
61     -64285.7  59  941  59   0
62      64285.7  59  941  59   0
63       107143  59  941  59   0
64      -107143  59  941  59   0
65      -192857  59  941  59   0
66       192857  59  941  59   0
67      21428.6  59  941  59   0
68     -21428.6  59  941  59   0
69       157143  59  941  59   0
70      -157143  59  941  59   0
71      -135714  59  941  59   0
72       135714  59  941  59   0
73       -50000  59  941  59   0
74        50000  59  941  59   0

# Format of ADC events:
# id num dwell delay freq phase
# ..  ..    ns    us   Hz   rad
[ADC]
1 70 50000 124 0 0

# Format of extension lists:
# id type ref next_id
# next_id of 0 terminates the list
# Extension list is followed by extension specifications
[EXTENSIONS]
1 1 1 0
2 1 2 1
3 1 3 0
4 1 4 3
5 1 5 0
6 1 6 5
7 1 7 0
8 1 8 7
9 1 9 0
10 1 10 9
11 1 11 0
12 1 12 11
13 1 13 0
14 1 14 13
15 1 15 0
16 1 16 15
17 1 2 0
18 1 17 17
19 1 18 0
20 1 19 19
21 1 20 1
22 1 21 19
23 1 22 0
24 1 23 23
25 1 14 0
26 1 24 25
27 1 25 0
28 1 26 27
29 1 27 0
30 1 28 29
31 1 29 0
32 1 30 31
33 1 31 0
34 1 32 33
35 1 33 0
36 1 34 35
37 1 35 15
38 1 36 17
39 1 16 0
40 1 37 39
41 1 38 5
42 1 39 0
43 1 40 42
44 1 41 0
45 1 42 44
46 1 43 11
47 1 44 0
48 1 45 47
49 1 46 0
50 1 47 49
51 1 48 0
52 1 49 51
53 1 50 42
54 1 51 1
55 1 52 19
56 1 38 0
57 1 53 56
58 1 54 25
59 1 55 0
60 1 56 59
61 1 10 0
62 1 27 61
63 1 34 0
64 1 54 63
65 1 32 0
66 1 57 65
67 1 58 0
68 1 59 67
69 1 60 0
70 1 61 69
71 1 48 17
72 1 40 3
73 1 62 0
74 1 63 73
75 1 4 0
76 1 39 75
77 1 42 13
78 1 43 0
79 1 64 78
80 1 65 13
81 1 42 0
82 1 66 81
83 1 36 0
84 1 67 83
85 1 50 9
86 1 68 17
87 1 61 0
88 1 69 87
89 1 59 0
90 1 62 89
91 1 30 0
92 1 44 91
93 1 26 0
94 1 70 93
95 1 71 61
96 1 23 0
97 1 24 96
98 1 28 0
99 1 60 98
100 1 49 0
101 1 53 100
102 1 35 19
103 1 72 1
104 1 40 0
105 1 73 104
106 1 74 0
107 1 75 106
108 1 19 7
109 1 76 49
110 1 12 0
111 1 64 110
112 1 21 0
113 1 77 112
114 1 50 3
115 1 17 0
116 1 72 115
117 1 19 15
118 1 72 0
119 1 78 118
120 1 50 0
121 1 69 120
122 1 79 73
123 1 80 47
124 1 53 78
125 1 81 0
126 1 82 125
127 1 83 0
128 1 84 127
129 1 35 0
130 1 81 129
131 1 59 115
132 1 60 120
133 1 85 1
134 1 86 1
135 1 87 56
136 1 19 0
137 1 37 136
138 1 45 0
139 1 88 138
140 1 89 9
141 1 69 61
142 1 61 3
143 1 85 67
144 1 76 0
145 1 90 144
146 1 68 0
147 1 72 146
148 1 91 120
149 1 74 89
150 1 88 0
151 1 92 150
152 1 64 89
153 1 77 0
154 1 93 153
155 1 84 0
156 1 94 155
157 1 60 61
158 1 53 0
159 1 67 158
160 1 95 63
161 1 72 51
162 1 96 1
163 1 6 0
164 1 87 163
165 1 8 0
166 1 37 165
167 1 88 144
168 1 97 136
169 1 52 0
170 1 77 169
171 1 47 0
172 1 88 171
173 1 72 67
174 1 41 96
175 1 98 19
176 1 91 87
177 1 79 106
178 1 92 49
179 1 79 11
180 1 71 98
181 1 99 127
182 1 77 129
183 1 79 115
184 1 90 0
185 1 100 184
186 1 85 51
187 1 101 17
188 1 63 0
189 1 74 188
190 1 89 0
191 1 102 190
192 1 103 44
193 1 104 136
194 1 81 112
195 1 98 150
196 1 49 83
197 1 34 13
198 1 85 146
199 1 73 0
200 1 105 199
201 1 106 163
202 1 103 0
203 1 107 202
204 1 64 0
205 1 79 204
206 1 108 25
207 1 94 0
208 1 99 207
209 1 109 87
210 1 67 0
211 1 106 210
212 1 55 96
213 1 72 83
214 1 110 17
215 1 73 98
216 1 102 0
217 1 111 216
218 1 103 13
219 1 111 42
220 1 91 61
221 1 112 15
222 1 67 51
223 1 90 138
224 1 98 15
225 1 109 39
226 1 53 163
227 1 108 202
228 1 59 11
229 1 86 0
230 1 95 229
231 1 113 0
232 1 114 231
233 1 105 19
234 1 106 100
235 1 100 31
236 1 85 83
237 1 101 118
238 1 112 153
239 1 104 0
240 1 115 239
241 1 46 138
242 1 104 165
243 1 91 98
244 1 66 0
245 1 103 244
246 1 85 115
247 1 76 31
248 1 61 23
249 1 33 39
250 1 106 56
251 1 108 81
252 1 106 78
253 1 107 25
254 1 116 231
255 1 61 35
256 1 79 67
257 1 29 93
258 1 70 17
259 1 85 0
260 1 110 259
261 1 28 3
262 1 117 190
263 1 75 11
264 1 111 9
265 1 69 98
266 1 73 87
267 1 118 125
268 1 41 63
269 1 20 0
270 1 36 269
271 1 105 3
272 1 80 0
273 1 119 272
274 1 120 49
275 1 106 110
276 1 92 0
277 1 121 276
278 1 116 0
279 1 122 278
280 1 105 15
281 1 44 93
282 1 55 63
283 1 123 1
284 1 96 83
285 1 112 125
286 1 97 0
287 1 124 286
288 1 12 5
289 1 89 42
290 1 81 169
291 1 125 104
292 1 126 153
293 1 23 13
294 1 66 120
295 1 127 3
296 1 54 0
297 1 128 296
298 1 107 81
299 1 53 110
300 1 110 93
301 1 114 0
302 1 122 301
303 1 127 15
304 1 65 0
305 1 95 304
306 1 90 93
307 1 25 17
308 1 96 51
309 1 81 39
310 1 124 239
311 1 75 204
312 1 97 165
313 1 62 25
314 1 118 7
315 1 126 125
316 1 45 31
317 1 50 23
318 1 127 199
319 1 129 296
320 1 120 150
321 1 109 171
322 1 101 93
323 1 108 87
324 1 127 19
325 1 100 47
326 1 95 96
327 1 56 1
328 1 86 83
329 1 77 39
330 1 115 286
331 1 87 110
332 1 129 106
333 1 74 25
334 1 126 7
335 1 118 153
336 1 96 67
337 1 48 269
338 1 109 0
339 1 112 338
340 1 24 0
341 1 129 340
342 1 63 158
343 1 127 244
344 1 120 47
345 1 108 120
346 1 50 35
347 1 55 25
348 1 116 115
349 1 72 27
350 1 101 259
351 1 73 61
352 1 111 0
353 1 117 352
354 1 64 188
355 1 130 56
356 1 65 73
357 1 131 104
358 1 131 98
359 1 86 67
360 1 47 19
361 1 112 35
362 1 128 340
363 1 106 188
364 1 47 35
365 1 107 304
366 1 107 87
367 1 109 120
368 1 121 93
369 1 83 100
370 1 123 51
371 1 110 118
372 1 10 3
373 1 104 39
374 1 63 11
375 1 119 163
376 1 44 56
377 1 37 0
378 1 118 377
379 1 131 61
380 1 96 115
381 1 47 15
382 1 80 49
383 1 130 91
384 1 79 0
385 1 87 384
386 1 127 23
387 1 108 304
388 1 92 19
389 1 95 0
390 1 103 389
391 1 100 0
392 1 121 391
393 1 83 210
394 1 70 0
395 1 85 394
396 1 86 51
397 1 96 0
398 1 101 397
399 1 111 199
400 1 87 78
401 1 119 56
402 1 44 163
403 1 131 75
404 1 125 98
405 1 86 115
406 1 78 0
407 1 85 406
408 1 103 340
409 1 119 91
410 1 59 5
411 1 105 23
412 1 86 59
413 1 100 42
414 1 55 81
415 1 95 25
416 1 114 67
417 1 56 51
418 1 132 163
419 1 101 229
420 1 89 199
421 1 43 5
422 1 128 73
423 1 121 163
424 1 126 377
425 1 125 61
426 1 101 210
427 1 51 83
428 1 88 91
429 1 130 272
430 1 75 158
431 1 98 35
432 1 92 47
433 1 100 9
434 1 88 93
435 1 65 59
436 1 94 210
437 1 123 83
438 1 133 106
439 1 110 397
440 1 111 3
441 1 47 377
442 1 128 106
443 1 74 304
444 1 125 75
445 1 123 115
446 1 101 100
447 1 51 51
448 1 110 269
449 1 109 155
450 1 87 89
451 1 105 244
452 1 120 0
453 1 121 452
454 1 92 15
455 1 100 150
456 1 32 340
457 1 114 115
458 1 85 27
459 1 56 0
460 1 110 459
461 1 110 229
462 1 112 286
463 1 98 7
464 1 130 163
465 1 121 56
466 1 69 0
467 1 89 466
468 1 56 115
469 1 110 210
470 1 66 87
471 1 88 272
472 1 105 0
473 1 113 472
474 1 79 5
475 1 98 0
476 1 109 475
477 1 101 391
478 1 55 165
479 1 95 81
480 1 134 296
481 1 94 100
482 1 56 83
483 1 132 56
484 1 99 377
485 1 112 239
486 1 98 377
487 1 129 73
488 1 86 33
489 1 97 169
490 1 99 15
491 1 110 100
492 1 51 27
493 1 51 0
494 1 101 493
495 1 127 231
496 1 75 0
497 1 106 496
498 1 117 93
499 1 110 391
500 1 107 120
501 1 103 59
502 1 135 272
503 1 116 67
504 1 72 394
505 1 86 27
506 1 84 377
507 1 89 3
508 1 47 7
509 1 98 125
510 1 104 171
511 1 97 112
512 1 58 459
513 1 131 352
514 1 70 269
515 1 96 406
516 1 122 0
517 1 127 516
518 1 93 1
519 1 102 93
520 1 96 59
521 1 95 165
522 1 46 93
523 1 136 272
524 1 106 89
525 1 123 27
526 1 86 394
527 1 122 104
528 1 97 39
529 1 66 75
530 1 77 171
531 1 57 0
532 1 86 531
533 1 104 169
534 1 67 27
535 1 125 352
536 1 123 406
537 1 103 296
538 1 84 35
539 1 71 17
540 1 124 59
541 1 96 389
542 1 120 19
543 1 100 49
544 1 135 91
545 1 59 158
546 1 123 394
547 1 133 73
548 1 84 7
549 1 87 496
550 1 66 104
551 1 137 1
552 1 111 23
553 1 104 112
554 1 122 87
555 1 126 239
556 1 70 493
557 1 86 406
558 1 99 35
559 1 82 1
560 1 115 59
561 1 114 199
562 1 55 136
563 1 89 127
564 1 54 65
565 1 79 158
566 1 56 27
567 1 110 0
568 1 123 567
569 1 113 75
570 1 87 188
571 1 22 75
572 1 57 17
573 1 138 567
574 1 91 0
575 1 111 574
576 1 70 100
577 1 118 286
578 1 78 459
579 1 86 146
580 1 122 472
581 1 27 17
582 1 117 391
583 1 116 199
584 1 39 93
585 1 114 286
586 1 136 91
587 1 106 384
588 1 70 459
589 1 139 56
590 1 113 104
591 1 75 5
592 1 40 23
593 1 22 61
594 1 137 567
595 1 111 466
596 1 84 15
597 1 131 190
598 1 123 146
599 1 96 146
600 1 99 0
601 1 109 600
602 1 136 75
603 1 115 389
604 1 112 207
605 1 120 15
606 1 111 127
607 1 134 340
608 1 80 69
609 1 124 1
610 1 101 459
611 1 122 75
612 1 63 5
613 1 21 1
614 1 28 23
615 1 89 23
616 1 91 190
617 1 113 120
618 1 118 239
619 1 25 269
620 1 42 340
621 1 140 158
622 1 32 7
623 1 124 389
624 1 114 3
625 1 26 9
626 1 94 190
627 1 60 169
628 1 54 129
629 1 115 1
630 1 140 73
631 1 99 7
632 1 113 61
633 1 91 17
634 1 81 171
635 1 97 171
636 1 50 44
637 1 113 87
638 1 125 190
639 1 68 459
640 1 46 91
641 1 69 210
642 1 137 67
643 1 102 391
644 1 83 39
645 1 95 136
646 1 116 286
647 1 60 112
648 1 60 91
649 1 117 17
650 1 96 27
651 1 19 1
652 1 122 98
653 1 52 1
654 1 31 17
655 1 98 286
656 1 45 19
657 1 70 210
658 1 126 286
659 1 124 146
660 1 101 269
661 1 106 0
662 1 133 661
663 1 67 531
664 1 61 296
665 1 94 39
666 1 128 158
667 1 114 239
668 1 91 129
669 1 35 340
670 1 102 17
671 1 139 163
672 1 9 17
673 1 84 125
674 1 69 17
675 1 98 153
676 1 89 244
677 1 61 13
678 1 49 27
679 1 90 163
680 1 92 377
681 1 110 493
682 1 52 115
683 1 134 377
684 1 93 0
685 1 110 684
686 1 112 127
687 1 130 384
688 1 111 207
689 1 69 129
690 1 135 472
691 1 102 118
692 1 140 106
693 1 41 98
694 1 113 98
695 1 74 81
696 1 66 61
697 1 96 33
698 1 76 15
699 1 123 67
700 1 29 163
701 1 102 269
702 1 54 81
703 1 139 384
704 1 137 115
705 1 112 389
706 1 116 3
707 1 60 56
708 1 116 239
709 1 82 19
710 1 134 35
711 1 117 118
712 1 96 394
713 1 81 144
714 1 122 61
715 1 113 190
716 1 66 98
717 1 104 475
718 1 76 19
719 1 99 19
720 1 90 56
721 1 92 7
722 1 105 44
723 1 139 89
724 1 57 100
725 1 50 340
726 1 94 144
727 1 60 163
728 1 125 89
729 1 93 15
730 1 127 0
731 1 135 730
732 1 102 259
733 1 101 0
734 1 123 733
735 1 77 144
736 1 99 153
737 1 122 190
738 1 138 1
739 1 111 244
740 1 61 44
741 1 122 120
742 1 38 31
743 1 102 493
744 1 105 13
745 1 58 169
746 1 67 33
747 1 101 684
748 1 114 13
749 1 119 384
750 1 118 158
751 1 71 87
752 1 136 730
753 1 117 259
754 1 13 75
755 1 41 61
756 1 84 153
757 1 91 259
758 1 85 531
759 1 138 733
760 1 50 13
761 1 84 19
762 1 62 63
763 1 124 406
764 1 45 35
765 1 132 384
766 1 71 0
767 1 72 766
768 1 134 125
769 1 83 144
770 1 129 158
771 1 126 158
772 1 82 15
773 1 33 65
774 1 124 83
775 1 45 377
776 1 28 13
777 1 99 125
778 1 85 466
779 1 137 51
780 1 96 531
781 1 45 15
782 1 124 67
783 1 74 96
784 1 115 406
785 1 127 44
786 1 21 115
787 1 138 67
788 1 100 3
789 1 114 44
790 1 119 89
791 1 131 384
792 1 61 29
793 1 136 472
794 1 124 51
795 1 40 13
796 1 77 138
797 1 140 204
798 1 62 81
799 1 137 83
800 1 137 733
801 1 128 204
802 1 102 100
803 1 62 96
804 1 117 493
805 1 127 13
806 1 91 210
807 1 85 766
808 1 86 766
809 1 94 138
810 1 128 661
811 1 118 661
812 1 71 120
813 1 109 65
814 1 115 51
815 1 41 75
816 1 81 138
817 1 132 78
818 1 52 83
819 1 72 531
820 1 128 5
821 1 129 11
822 1 102 210
823 1 74 63
824 1 107 75
825 1 109 138
826 1 132 89
827 1 134 7
828 1 135 61
829 1 83 138
830 1 74 129
831 1 126 661
832 1 93 19
833 1 134 338
834 1 115 83
835 1 76 7
836 1 13 61
837 1 140 11
838 1 91 118
839 1 72 33
840 1 87 0
841 1 128 840
842 1 130 78
843 1 117 210
844 1 81 272
845 1 108 75
846 1 76 35
847 1 133 158
848 1 135 75
849 1 82 0
850 1 110 849
851 1 116 44
852 1 129 661
853 1 125 384
854 1 50 29
855 1 51 29
856 1 115 27
857 1 45 7
858 1 8 1
859 1 132 110
860 1 104 600
861 1 138 83
862 1 129 840
863 1 119 110
864 1 117 100
865 1 24 61
866 1 107 104
867 1 109 144
868 1 58 112
869 1 82 51
870 1 54 120
871 1 116 13
872 1 62 129
873 1 131 89
874 1 114 531
875 1 71 269
876 1 102 459
877 1 41 104
878 1 39 17
879 1 133 11
880 1 46 56
881 1 138 51
882 1 130 188
883 1 129 204
884 1 115 67
885 1 28 340
886 1 120 377
887 1 90 110
888 1 69 100
889 1 85 29
890 1 136 61
891 1 31 269
892 1 130 89
893 1 128 766
894 1 137 127
895 1 27 269
896 1 117 0
897 1 123 896
898 1 76 377
899 1 85 9
900 1 139 110
901 1 48 112
902 1 85 33
903 1 119 496
904 1 128 11
905 1 124 115
906 1 81 91
907 1 108 104
908 1 34 11
909 1 91 100
910 1 135 104
911 1 30 19
912 1 57 493
913 1 126 146
914 1 130 684
915 1 137 207
916 1 93 146
917 1 123 216
918 1 117 229
919 1 139 188
920 1 133 204
921 1 88 163
922 1 138 27
923 1 119 188
924 1 130 110
925 1 115 115
926 1 80 153
927 1 115 146
928 1 64 96
929 1 140 661
930 1 49 33
931 1 96 766
932 1 57 269
933 1 118 146
934 1 128 29
935 1 138 207
936 1 82 406
937 1 115 394
938 1 124 733
939 1 132 188
940 1 139 78
941 1 104 155
942 1 123 531
943 1 129 5
944 1 119 78
945 1 64 25
946 1 77 91
947 1 120 7
948 1 29 110
949 1 68 136
950 1 72 29
951 1 26 3
952 1 137 406
953 1 131 493
954 1 129 29
955 1 116 531
956 1 82 146
957 1 117 459
958 1 115 567
959 1 133 840
960 1 89 44
961 1 103 106
962 1 56 33
963 1 130 496
964 1 75 47
965 1 44 110
966 1 54 98
967 1 117 269
968 1 43 31
969 1 39 269
970 1 136 104
971 1 73 93
972 1 51 33
973 1 125 493
974 1 119 684
975 1 116 33
976 1 71 493
977 1 124 394
978 1 115 733
979 1 139 496
980 1 110 136
981 1 97 155
982 1 123 33
983 1 118 1
984 1 121 188
985 1 14 11
986 1 54 61
987 1 58 165
988 1 64 63
989 1 78 136
990 1 82 83
991 1 86 29
992 1 138 146
993 1 131 269
994 1 119 849
995 1 114 33
996 1 93 406
997 1 124 27
998 1 102 397
999 1 48 165
1000 1 101 136
1001 1 113 352
1002 1 57 459
1003 1 131 17
1004 1 14 5
1005 1 65 11
1006 1 119 0
1007 1 128 1006
1008 1 19 115
1009 1 23 11
1010 1 51 9
1011 1 93 83
1012 1 30 15
1013 1 138 406
1014 1 126 406
1015 1 130 849
1016 1 138 127
1017 1 95 276
1018 1 73 17
1019 1 102 229
1020 1 72 9
1021 1 97 138
1022 1 52 51
1023 1 138 394
1024 1 125 17
1025 1 63 47
1026 1 44 78
1027 1 129 0
1028 1 130 1027
1029 1 49 9
1030 1 90 78
1031 1 68 165
1032 1 93 51
1033 1 101 849
1034 1 137 146
1035 1 118 406
1036 1 129 766
1037 1 68 493
1038 1 120 59
1039 1 3 17
1040 1 124 567
1041 1 85 42
1042 1 89 13
1043 1 103 73
1044 1 137 394
1045 1 126 1
1046 1 87 25
1047 1 121 78
1048 1 128 0
1049 1 130 1048
1050 1 49 42
1051 1 107 61
1052 1 20 9
1053 1 37 65
1054 1 80 15
1055 1 136 352
1056 1 125 269
1057 1 60 136
1058 1 78 269
1059 1 107 93
1060 1 112 1
1061 1 117 397
1062 1 132 496
1063 1 101 165
1064 1 122 352
1065 1 137 27
1066 1 64 81
1067 1 65 5
1068 1 65 204
1069 1 129 1006
1070 1 17 165
1071 1 108 61
1072 1 78 165
1073 1 138 115
1074 1 100 199
1075 1 135 352
1076 1 139 129
1077 1 39 129
1078 1 68 269
1079 1 120 389
1080 1 16 1
1081 1 112 567
1082 1 133 5
1083 1 86 9
1084 1 46 163
1085 1 110 112
1086 1 131 259
1087 1 87 304
1088 1 121 110
1089 1 57 169
1090 1 67 42
1091 1 120 153
1092 1 51 42
1093 1 93 394
1094 1 81 65
1095 1 135 190
1096 1 132 129
1097 1 35 9
1098 1 78 493
1099 1 108 391
1100 1 85 3
1101 1 112 733
1102 1 48 136
1103 1 97 144
1104 1 72 466
1105 1 96 466
1106 1 42 11
1107 1 121 496
1108 1 54 104
1109 1 137 574
1110 1 58 136
1111 1 108 98
1112 1 120 239
1113 1 56 29
1114 1 55 39
1115 1 134 286
1116 1 133 69
1117 1 60 165
1118 1 108 472
1119 1 92 59
1120 1 48 39
1121 1 86 199
1122 1 72 42
1123 1 111 44
1124 1 36 112
1125 1 110 169
1126 1 118 83
1127 1 118 733
1128 1 80 377
1129 1 31 112
1130 1 67 9
1131 1 120 125
1132 1 97 276
1133 1 71 459
1134 1 136 98
1135 1 134 239
1136 1 140 69
1137 1 44 65
1138 1 108 0
1139 1 127 1138
1140 1 107 391
1141 1 112 51
1142 1 96 3
1143 1 140 5
1144 1 104 144
1145 1 88 56
1146 1 91 229
1147 1 118 51
1148 1 74 87
1149 1 54 75
1150 1 138 574
1151 1 90 496
1152 1 92 125
1153 1 120 286
1154 1 123 766
1155 1 112 59
1156 1 104 65
1157 1 114 5
1158 1 121 65
1159 1 107 0
1160 1 127 1159
1161 1 108 93
1162 1 85 199
1163 1 86 3
1164 1 140 840
1165 1 86 42
1166 1 99 286
1167 1 101 169
1168 1 103 11
1169 1 125 229
1170 1 24 75
1171 1 52 33
1172 1 90 188
1173 1 92 153
1174 1 111 1138
1175 1 82 27
1176 1 77 65
1177 1 97 65
1178 1 94 496
1179 1 121 0
1180 1 134 1179
1181 1 120 35
1182 1 94 96
1183 1 72 3
1184 1 110 39
1185 1 36 136
1186 1 111 13
1187 1 123 574
1188 1 86 466
1189 1 88 78
1190 1 131 229
1191 1 80 7
1192 1 57 112
1193 1 87 96
1194 1 107 98
1195 1 111 1159
1196 1 82 394
1197 1 134 153
1198 1 136 190
1199 1 114 840
1200 1 134 47
1201 1 107 472
1202 1 83 63
1203 1 112 83
1204 1 96 199
1205 1 36 165
1206 1 96 42
1207 1 123 466
1208 1 96 574
1209 1 131 118
1210 1 15 163
1211 1 30 7
1212 1 138 466
1213 1 23 5
1214 1 109 56
1215 1 104 276
1216 1 93 27
1217 1 61 340
1218 1 88 89
1219 1 116 840
1220 1 136 25
1221 1 92 35
1222 1 83 96
1223 1 36 39
1224 1 101 39
1225 1 56 9
1226 1 104 138
1227 1 25 112
1228 1 101 112
1229 1 125 118
1230 1 62 87
1231 1 40 340
1232 1 137 466
1233 1 34 5
1234 1 33 163
1235 1 108 190
1236 1 123 29
1237 1 80 19
1238 1 59 49
1239 1 83 496
1240 1 136 304
1241 1 109 276
1242 1 114 31
1243 1 73 118
1244 1 132 0
1245 1 133 1244
1246 1 25 136
1247 1 110 165
1248 1 69 459
1249 1 124 33
1250 1 46 78
1251 1 18 163
1252 1 37 91
1253 1 61 11
1254 1 75 31
1255 1 109 163
1256 1 107 190
1257 1 117 684
1258 1 95 39
1259 1 88 384
1260 1 94 188
1261 1 135 304
1262 1 120 338
1263 1 116 31
1264 1 124 896
1265 1 133 0
1266 1 139 1265
1267 1 56 42
1268 1 96 9
1269 1 70 112
1270 1 124 531
1271 1 126 83
1272 1 131 397
1273 1 67 3
1274 1 43 15
1275 1 63 31
1276 1 105 73
1277 1 135 17
1278 1 117 849
1279 1 135 98
1280 1 79 49
1281 1 83 188
1282 1 135 25
1283 1 131 391
1284 1 116 184
1285 1 124 216
1286 1 139 0
1287 1 140 1286
1288 1 123 42
1289 1 98 1
1290 1 70 169
1291 1 137 216
1292 1 46 110
1293 1 126 567
1294 1 73 210
1295 1 122 100
1296 1 87 63
1297 1 38 35
1298 1 134 1
1299 1 115 29
1300 1 96 29
1301 1 99 389
1302 1 116 5
1303 1 107 63
1304 1 131 93
1305 1 114 184
1306 1 115 0
1307 1 117 1306
1308 1 140 1244
1309 1 123 9
1310 1 66 17
1311 1 52 27
1312 1 137 896
1313 1 103 204
1314 1 126 733
1315 1 112 115
1316 1 133 184
1317 1 78 39
1318 1 127 73
1319 1 32 1
1320 1 102 849
1321 1 78 169
1322 1 84 59
1323 1 82 23
1324 1 92 31
1325 1 118 59
